# q / A-1 	 Counts 	 sCounts
2.847353708642045168e-03 7.907590000000000000e+06 2.812043740769335727e+03
3.559192095145358690e-03 6.057550000000000000e+06 2.461209052478070134e+03
4.271030454543874207e-03 5.583380000000000000e+06 2.362917687944292538e+03
4.982868781416634196e-03 5.961920000000000000e+06 2.441704322804053390e+03
5.694707070342677237e-03 6.625720000000000000e+06 2.574047396611025761e+03
6.406545315901047109e-03 7.333370000000000000e+06 2.708019571568861465e+03
7.118383512670783259e-03 8.102410000000000000e+06 2.846473256505319569e+03
7.830221655230928599e-03 8.858000000000000000e+06 2.976239237695787324e+03
8.542059738160526910e-03 9.623550000000000000e+06 3.102184714036222431e+03
9.253897756038621109e-03 1.037360000000000000e+07 3.220807352202239144e+03
9.965735703444254107e-03 1.113170000000000000e+07 3.336420237320232900e+03
1.067757357495646708e-02 1.185650000000000000e+07 3.443326879632545115e+03
1.138941136515430989e-02 1.257870000000000000e+07 3.546646303199685917e+03
1.210124906861682718e-02 1.328190000000000000e+07 3.644434112451478995e+03
1.281308667992305667e-02 1.399050000000000000e+07 3.740387680441694556e+03
1.352492419365205166e-02 1.466200000000000000e+07 3.829099110756993923e+03
1.423676160438286376e-02 1.533980000000000000e+07 3.916605673283946999e+03
1.494859890669453240e-02 1.597190000000000000e+07 3.996485956437230016e+03
1.566043609516611437e-02 1.660810000000000000e+07 4.075303669666838232e+03
1.637227316437665087e-02 1.720160000000000000e+07 4.147481163308641044e+03
1.708411010890519693e-02 1.779540000000000000e+07 4.218459434438122116e+03
1.779594692333081110e-02 1.836290000000000000e+07 4.285195444784286337e+03
1.850778360223253802e-02 1.893000000000000000e+07 4.350861983561418128e+03
1.921962014018942927e-02 1.944490000000000000e+07 4.409637173283081211e+03
1.993145653178054685e-02 1.995490000000000000e+07 4.467090775885352741e+03
2.064329277158493542e-02 2.041390000000000000e+07 4.518174410090871788e+03
2.135512885418166390e-02 2.086790000000000000e+07 4.568139665115329990e+03
2.206696477414978735e-02 2.127970000000000000e+07 4.612992521129857778e+03
2.277880052606836778e-02 2.168580000000000000e+07 4.656801477409145264e+03
2.349063610451646023e-02 2.203530000000000000e+07 4.694177244203716327e+03
2.420247150407312670e-02 2.238170000000000000e+07 4.730930141103332971e+03
2.491430671931742918e-02 2.266070000000000000e+07 4.760325619114725669e+03
2.562614174482844356e-02 2.290540000000000000e+07 4.785958629156754796e+03
2.633797657518522489e-02 2.309040000000000000e+07 4.805247132042221892e+03
2.704981120496683863e-02 2.319550000000000000e+07 4.816170678038725782e+03
2.776164562875236760e-02 2.318470000000000000e+07 4.815049324773319313e+03
2.847347984112087380e-02 2.302980000000000000e+07 4.798937382379561313e+03
2.918531383665142614e-02 2.256980000000000000e+07 4.750768358907851507e+03
2.989714760992311093e-02 2.143760000000000000e+07 4.630075593335383019e+03
3.060898115551500057e-02 1.883910000000000000e+07 4.340403207076504259e+03
3.132081446800615704e-02 1.400450000000000000e+07 3.742258676254221882e+03
3.203264754197568398e-02 1.105970000000000000e+07 3.325612725498866439e+03
3.274448037200264339e-02 1.208420000000000000e+07 3.476233593992210444e+03
3.345631295266612154e-02 1.343380000000000000e+07 3.665214864097328700e+03
3.416814527854520472e-02 1.397450000000000000e+07 3.738248252858549677e+03
3.487997734421898616e-02 1.383860000000000000e+07 3.720026881623303325e+03
3.559180914426655906e-02 1.332730000000000000e+07 3.650657475031038757e+03
3.630364067326698890e-02 1.260410000000000000e+07 3.550225344960514121e+03
3.701547192579940360e-02 1.173380000000000000e+07 3.425463472291012295e+03
3.772730289644286167e-02 1.079850000000000000e+07 3.286107119373925798e+03
3.843913357977649103e-02 9.810750000000000000e+06 3.132211678670520541e+03
3.915096397037937798e-02 8.834110000000000000e+06 2.972223073727811425e+03
3.986279406283061572e-02 7.842360000000000000e+06 2.800421396861550875e+03
4.057462385170931135e-02 6.907780000000000000e+06 2.628265587797397529e+03
4.128645333159459280e-02 6.003580000000000000e+06 2.450220398249920891e+03
4.199828249706554634e-02 5.167420000000000000e+06 2.273195988030948683e+03
4.271011134270128601e-02 4.380200000000000000e+06 2.092892734948449288e+03
4.342193986308093279e-02 3.677930000000000000e+06 1.917793002385815271e+03
4.413376805278359377e-02 3.045570000000000000e+06 1.745156153471659991e+03
4.484559590638839688e-02 2.500860000000000000e+06 1.581410762578780577e+03
4.555742341847445614e-02 2.020730000000000000e+06 1.421523830261033709e+03
4.626925058362089255e-02 1.618690000000000000e+06 1.272277485456690783e+03
4.698107739640684094e-02 1.280030000000000000e+06 1.131384108072939171e+03
4.769290385141141536e-02 1.008750000000000000e+06 1.004365471330033301e+03
4.840472994321376454e-02 7.893170000000000000e+05 8.884351411329923849e+02
4.911655566639300252e-02 6.174910000000000000e+05 7.858059556913525512e+02
4.982838101552829885e-02 4.836060000000000000e+05 6.954178599949817681e+02
5.054020598519876062e-02 3.847580000000000000e+05 6.202886424883176915e+02
5.125203056998355045e-02 3.080210000000000000e+05 5.549963963846972774e+02
5.196385476446181012e-02 2.535280000000000000e+05 5.035156402734675680e+02
5.267567856321268838e-02 2.105720000000000000e+05 4.588812482549270726e+02
5.338750196081532007e-02 1.803670000000000000e+05 4.246963621223991368e+02
5.409932495184887474e-02 1.594230000000000000e+05 3.992780985729119720e+02
5.481114753089252195e-02 1.420210000000000000e+05 3.768567367050773669e+02
5.552296969252541042e-02 1.284140000000000000e+05 3.583489919059351791e+02
5.623479143132670277e-02 1.174460000000000000e+05 3.427039538727267427e+02
5.694661274187556854e-02 1.076630000000000000e+05 3.281204047297272268e+02
5.765843361875119116e-02 9.903000000000000000e+04 3.146903239694541412e+02
5.837025405653269855e-02 9.151700000000000000e+04 3.025177680732158478e+02
5.908207404979932964e-02 8.250600000000000000e+04 2.872385767963627927e+02
5.979389359313021929e-02 7.518100000000000000e+04 2.741915388920672285e+02
6.050571268110459255e-02 6.811700000000000000e+04 2.609923370522590744e+02
6.121753130830159817e-02 6.163500000000000000e+04 2.482639724164583583e+02
6.192934946930045426e-02 5.528300000000000000e+04 2.351233718710243465e+02
6.264116715868033036e-02 5.039000000000000000e+04 2.244771703314169997e+02
6.335298437102045155e-02 4.559800000000000000e+04 2.135368820602192841e+02
6.406480110090000124e-02 4.208300000000000000e+04 2.051414146387803328e+02
6.477661734289819062e-02 3.845800000000000000e+04 1.961071135884672572e+02
6.548843309159421699e-02 3.542800000000000000e+04 1.882232716748914640e+02
6.620024834156733318e-02 3.350200000000000000e+04 1.830355156793347646e+02
6.691206308739670872e-02 3.184000000000000000e+04 1.784376641855637047e+02
6.762387732366158255e-02 3.059300000000000000e+04 1.749085475327034942e+02
6.833569104494117974e-02 2.990200000000000000e+04 1.729219477105205272e+02
6.904750424581476698e-02 2.906700000000000000e+04 1.704904689418150383e+02
6.975931692086148606e-02 2.836000000000000000e+04 1.684042754801670583e+02
7.047112906466067306e-02 2.792900000000000000e+04 1.671197175679758118e+02
7.118294067179149753e-02 2.774200000000000000e+04 1.665592987497245758e+02
7.189475173683324005e-02 2.729700000000000000e+04 1.652180377561723787e+02
7.260656225436511180e-02 2.672900000000000000e+04 1.634900608599801046e+02
7.331837221896642109e-02 2.615600000000000000e+04 1.617281669963522575e+02
7.403018162521639300e-02 2.562700000000000000e+04 1.600843527644098003e+02
7.474199046769429422e-02 2.482300000000000000e+04 1.575531656298914243e+02
7.545379874097937756e-02 2.384400000000000000e+04 1.544150251756609293e+02
7.616560643965092359e-02 2.258100000000000000e+04 1.502697574364183311e+02
7.687741355828821288e-02 2.134600000000000000e+04 1.461027036026370070e+02
7.758922009147052601e-02 2.001100000000000000e+04 1.414602417642497869e+02
7.830102603377714354e-02 1.891400000000000000e+04 1.375281789307194913e+02
7.901283137978733218e-02 1.733700000000000000e+04 1.316700421508248837e+02
7.972463612408040023e-02 1.614200000000000000e+04 1.270511707935035162e+02
8.043644026123564217e-02 1.483200000000000000e+04 1.217866987811066366e+02
8.114824378583236630e-02 1.348300000000000000e+04 1.161163209889118093e+02
8.186004669244986709e-02 1.252100000000000000e+04 1.118972743189037686e+02
8.257184897566749449e-02 1.150100000000000000e+04 1.072427153703224718e+02
8.328365063006451519e-02 1.058400000000000000e+04 1.028785691968934799e+02
8.399545165022025139e-02 9.711000000000000000e+03 9.854440623394104648e+01
8.470725203071406695e-02 9.023000000000000000e+03 9.498947310097051400e+01
8.541905176612525630e-02 8.534000000000000000e+03 9.237965143904797571e+01
8.613085085103316940e-02 8.059000000000000000e+03 8.977193325310534533e+01
8.684264928001715622e-02 7.800000000000000000e+03 8.831760866327846315e+01
8.755444704765653896e-02 7.404000000000000000e+03 8.604649905719581682e+01
8.826624414853066758e-02 7.326000000000000000e+03 8.559205570612263614e+01
8.897804057721891979e-02 7.247000000000000000e+03 8.512931340026183591e+01
8.968983632830064556e-02 7.124000000000000000e+03 8.440379138403676507e+01
9.040163139635520873e-02 7.315000000000000000e+03 8.552777326693359328e+01
9.111342577596197312e-02 7.518000000000000000e+03 8.670640114778147733e+01
9.182521946170033034e-02 7.425000000000000000e+03 8.616843969807042924e+01
9.253701244814964422e-02 7.369000000000000000e+03 8.584287972802403033e+01
9.324880472988930635e-02 7.257000000000000000e+03 8.518802732778826226e+01
9.396059630149873609e-02 7.270000000000000000e+03 8.526429498916883176e+01
9.467238715755728340e-02 7.354000000000000000e+03 8.575546629807338661e+01
9.538417729264436762e-02 7.314000000000000000e+03 8.552192701290120169e+01
9.609596670133940810e-02 6.904000000000000000e+03 8.309031231136395945e+01
9.680775537822183807e-02 6.891000000000000000e+03 8.301204731844649132e+01
9.751954331787103525e-02 6.781000000000000000e+03 8.234682750416071428e+01
9.823133051486640510e-02 6.495000000000000000e+03 8.059156283383515529e+01
9.894311696378745025e-02 6.102000000000000000e+03 7.811529939774922582e+01
9.965490265921357615e-02 5.909000000000000000e+03 7.687002016391045345e+01
1.003666875957242161e-01 5.752000000000000000e+03 7.584194090343416406e+01
1.010784717678988170e-01 5.480000000000000000e+03 7.402702209328698757e+01
1.017902551703168262e-01 5.021000000000000000e+03 7.085901495222749702e+01
1.025020377975577324e-01 4.610000000000000000e+03 6.789698078707182560e+01
1.032138196442009825e-01 4.505000000000000000e+03 6.711929677819934170e+01
1.039256007048260377e-01 4.217000000000000000e+03 6.493843238021688080e+01
1.046373809740123728e-01 3.964000000000000000e+03 6.296030495478877498e+01
1.053491604463395181e-01 3.794000000000000000e+03 6.159545437773797261e+01
1.060609391163868931e-01 3.448000000000000000e+03 5.871967302361279195e+01
1.067727169787340419e-01 3.263000000000000000e+03 5.712267500739088888e+01
1.074844940279604394e-01 3.056000000000000000e+03 5.528109984434101420e+01
1.081962702586456299e-01 2.972000000000000000e+03 5.451605268175604380e+01
1.089080456653691020e-01 2.945000000000000000e+03 5.426785420486054079e+01
1.096198202427103585e-01 2.864000000000000000e+03 5.351635264103860834e+01
1.103315939852489574e-01 2.740000000000000000e+03 5.234500931320960149e+01
1.110433668875644292e-01 2.643000000000000000e+03 5.141011573610781227e+01
1.117551389442362902e-01 2.615000000000000000e+03 5.113707070218238471e+01
1.124669101498440987e-01 2.644000000000000000e+03 5.141984052872976463e+01
1.131786804989674267e-01 2.667000000000000000e+03 5.164300533470142796e+01
1.138904499861857905e-01 2.648000000000000000e+03 5.145872132107442809e+01
1.146022186060788040e-01 2.692000000000000000e+03 5.188448708429138634e+01
1.153139863532259973e-01 2.643000000000000000e+03 5.141011573610781227e+01
1.160257532222069426e-01 2.632000000000000000e+03 5.130302135352263804e+01
1.167375192076012813e-01 2.599000000000000000e+03 5.098038838612354340e+01
1.174492843039885714e-01 2.546000000000000000e+03 5.045790324617145473e+01
1.181610485059484128e-01 2.575000000000000000e+03 5.074445782546109740e+01
1.188728118080604051e-01 2.559000000000000000e+03 5.058655947976695444e+01
1.195845742049041621e-01 2.510000000000000000e+03 5.009990019950139839e+01
1.202963356910593390e-01 2.460000000000000000e+03 4.959838707054898066e+01
1.210080962611055078e-01 2.338000000000000000e+03 4.835286961494632862e+01
1.217198559096223237e-01 2.369000000000000000e+03 4.867237409455182728e+01
1.224316146311894421e-01 2.228000000000000000e+03 4.720169488482378739e+01
1.231433724203864905e-01 2.274000000000000000e+03 4.768647607026545643e+01
1.238551292717931240e-01 2.207000000000000000e+03 4.697871858618537999e+01
1.245668851799890259e-01 2.065000000000000000e+03 4.544227107000705246e+01
1.252786401395538096e-01 2.092000000000000000e+03 4.573838650411708784e+01
1.259903941450672138e-01 1.967000000000000000e+03 4.435087372307337006e+01
1.267021471911089492e-01 1.842000000000000000e+03 4.291852746774986826e+01
1.274138992722586017e-01 1.816000000000000000e+03 4.261455150532503211e+01
1.281256503830959237e-01 1.690000000000000000e+03 4.110960958218893069e+01
1.288374005182006399e-01 1.723000000000000000e+03 4.150903516103451807e+01
1.295491496721524471e-01 1.631000000000000000e+03 4.038564101261734152e+01
1.302608978395310424e-01 1.523000000000000000e+03 3.902563260217571184e+01
1.309726450149161781e-01 1.583000000000000000e+03 3.978693252815552484e+01
1.316843911928875788e-01 1.513000000000000000e+03 3.889730067755344578e+01
1.323961363680250525e-01 1.518000000000000000e+03 3.896151947755631539e+01
1.331078805349082128e-01 1.475000000000000000e+03 3.840572873934303999e+01
1.338196236881168955e-01 1.462000000000000000e+03 3.823610858861032114e+01
1.345313658222309083e-01 1.411000000000000000e+03 3.756327994198589693e+01
1.352431069318299484e-01 1.437000000000000000e+03 3.790778284204973403e+01
1.359548470114938790e-01 1.415000000000000000e+03 3.761648574760805275e+01
1.366665860558023970e-01 1.360000000000000000e+03 3.687817782917154830e+01
1.373783240593353938e-01 1.326000000000000000e+03 3.641428291206624834e+01
1.380900610166725939e-01 1.321000000000000000e+03 3.634556369077249371e+01
1.388017969223938608e-01 1.310000000000000000e+03 3.619392214170771638e+01
1.395135317710789469e-01 1.290000000000000000e+03 3.591656999213594048e+01
1.402252655573077711e-01 1.245000000000000000e+03 3.528455752875470353e+01
1.409369982756601691e-01 1.289000000000000000e+03 3.590264614203248072e+01
1.416487299207158934e-01 1.296000000000000000e+03 3.600000000000000000e+01
1.423604604870548629e-01 1.250000000000000000e+03 3.535533905932737753e+01
1.430721899692569410e-01 1.184000000000000000e+03 3.440930106817050671e+01
1.437839183619019634e-01 1.184000000000000000e+03 3.440930106817050671e+01
1.444956456595698491e-01 1.158000000000000000e+03 3.402939905434710965e+01
1.452073718568404614e-01 1.124000000000000000e+03 3.352610922848042208e+01
1.459190969482937195e-01 1.120000000000000000e+03 3.346640106136302251e+01
1.466308209285094866e-01 1.098000000000000000e+03 3.313608305156178346e+01
1.473425437920677095e-01 1.091000000000000000e+03 3.303028912982748722e+01
1.480542655335482793e-01 1.053000000000000000e+03 3.244996147917590434e+01
1.487659861475311429e-01 1.003000000000000000e+03 3.167017524422623254e+01
1.494777056285962469e-01 9.400000000000000000e+02 3.065941943351178267e+01
1.501894239713235379e-01 9.160000000000000000e+02 3.026549190084311292e+01
1.509011411702929351e-01 9.130000000000000000e+02 3.021588985947625616e+01
1.516128572200844404e-01 9.140000000000000000e+02 3.023243291566194912e+01
1.523245721152780008e-01 8.770000000000000000e+02 2.961418578992169515e+01
1.530362858504535906e-01 8.390000000000000000e+02 2.896549671592047659e+01
1.537479984201912675e-01 8.050000000000000000e+02 2.837252191822221548e+01
1.544597098190709228e-01 7.380000000000000000e+02 2.716615541441224835e+01
1.551714200416726974e-01 8.230000000000000000e+02 2.868797657556210368e+01
1.558831290825765103e-01 7.620000000000000000e+02 2.760434748368452063e+01
1.565948369363623915e-01 7.910000000000000000e+02 2.812472222085046525e+01
1.573065435976103710e-01 8.090000000000000000e+02 2.844292530665578411e+01
1.580182490609005341e-01 7.770000000000000000e+02 2.787471972953270694e+01
1.587299533208129110e-01 7.730000000000000000e+02 2.780287754891568852e+01
1.594416563719275870e-01 7.170000000000000000e+02 2.677685567799176880e+01
1.601533582088245644e-01 7.450000000000000000e+02 2.729468812791236232e+01
1.608650588260840120e-01 7.110000000000000000e+02 2.666458325194676604e+01
1.615767582182859874e-01 7.240000000000000000e+02 2.690724809414741969e+01
1.622884563800105762e-01 6.970000000000000000e+02 2.640075756488817049e+01
1.630001533058379193e-01 6.630000000000000000e+02 2.574878637916746627e+01
1.637118489903480467e-01 6.690000000000000000e+02 2.586503431275512455e+01
1.644235434281212105e-01 6.840000000000000000e+02 2.615339366124404208e+01
1.651352366137374961e-01 6.760000000000000000e+02 2.600000000000000000e+01
1.658469285417769890e-01 6.690000000000000000e+02 2.586503431275512455e+01
1.665586192068199134e-01 6.560000000000000000e+02 2.561249694973139412e+01
1.672703086034464104e-01 6.950000000000000000e+02 2.636285265292813662e+01
1.679819967262366764e-01 6.290000000000000000e+02 2.507987240796890660e+01
1.686936835697709081e-01 5.830000000000000000e+02 2.414539293529927377e+01
1.694053691286292185e-01 6.350000000000000000e+02 2.519920633670830412e+01
1.701170533973919152e-01 6.610000000000000000e+02 2.570992026436488231e+01
1.708287363706391393e-01 6.180000000000000000e+02 2.485960578931210563e+01
1.715404180429511705e-01 5.900000000000000000e+02 2.428991560298223717e+01
1.722520984089081497e-01 5.620000000000000000e+02 2.370653918225939449e+01
1.729637774630904401e-01 5.780000000000000000e+02 2.404163056034261459e+01
1.736754552000782659e-01 5.420000000000000000e+02 2.328089345364563201e+01
1.743871316144518235e-01 5.430000000000000000e+02 2.330236039546208815e+01
1.750988067007914484e-01 5.290000000000000000e+02 2.300000000000000000e+01
1.758104804536773647e-01 4.990000000000000000e+02 2.233830790368867625e+01
1.765221528676899632e-01 4.960000000000000000e+02 2.227105745132008607e+01
1.772338239374094682e-01 5.090000000000000000e+02 2.256102834535695578e+01
1.779454936574162149e-01 5.110000000000000000e+02 2.260530911091462869e+01
1.786571620222905110e-01 4.840000000000000000e+02 2.200000000000000000e+01
1.793688290266127472e-01 4.620000000000000000e+02 2.149418526020467723e+01
1.800804946649632310e-01 4.510000000000000000e+02 2.123676058159530200e+01
1.807921589319223810e-01 4.620000000000000000e+02 2.149418526020467723e+01
1.815038218220704214e-01 4.370000000000000000e+02 2.090454496036687360e+01
1.822154833299878818e-01 4.500000000000000000e+02 2.121320343559642652e+01
1.829271434502550142e-01 4.480000000000000000e+02 2.116601048851672573e+01
1.836388021774523482e-01 4.430000000000000000e+02 2.104756517984918673e+01
1.843504595061601914e-01 4.500000000000000000e+02 2.121320343559642652e+01
1.850621154309590455e-01 4.180000000000000000e+02 2.044504830026087205e+01
1.857737699464292458e-01 4.360000000000000000e+02 2.088061301782110135e+01
1.864854230471513219e-01 3.850000000000000000e+02 1.962141687034858251e+01
1.871970747277056646e-01 3.780000000000000000e+02 1.944222209522358114e+01
1.879087249826728034e-01 3.850000000000000000e+02 1.962141687034858251e+01
1.886203738066331015e-01 3.780000000000000000e+02 1.944222209522358114e+01
1.893320211941671993e-01 4.140000000000000000e+02 2.034698994937580352e+01
1.900436671398554322e-01 3.410000000000000000e+02 1.846618531261938756e+01
1.907553116382783853e-01 3.490000000000000000e+02 1.868154169226940553e+01
1.914669546840165881e-01 3.870000000000000000e+02 1.967231557290600108e+01
